# pion production rate for protons on the CMB
# table derived from SOPHIA cross-sections
#   Energy(EeV) - rate in Mpc^(-1)
      10.0000      0.00000
      10.9750      0.00000
      12.0450      0.00000
      13.2194      0.00000
      14.5083      0.00000
      15.9228      0.00000
      17.4753      0.00000
      19.1791      0.00000
      21.0491      0.00000
      23.1013      0.00000
      25.3536      0.00000
      27.8256  2.40446e-06
      30.5385  1.37710e-05
      33.5160  4.65591e-05
      36.7838  0.000124158
      40.3702  0.000284819
      44.3062  0.000591934
      48.6260   0.00114037
      53.3670   0.00206324
      58.5702   0.00354570
      64.2807   0.00579890
      70.5480   0.00905694
      77.4264    0.0135275
      84.9753    0.0195487
      93.2603    0.0272672
      102.353    0.0367994
      112.332    0.0480813
      123.285    0.0612597
      135.305    0.0758316
      148.497    0.0919104
      162.975     0.108582
      178.865     0.125772
      196.304     0.143071
      215.443     0.160037
      236.449     0.176324
      259.503     0.191526
      284.804     0.205721
      312.571     0.218437
      343.047     0.229792
      376.494     0.239365
      413.201     0.247620
      453.488     0.254660
      497.703     0.259769
      546.227     0.263563
      599.484     0.266055
      657.933     0.267122
      722.080     0.266827
      792.482     0.265793
      869.749     0.263887
      954.549     0.260846
      1047.61     0.256896
      1149.76     0.253337
      1261.86     0.248657
      1384.89     0.243477
      1519.91     0.238335
      1668.10     0.233420
      1830.74     0.228753
      2009.23     0.223538
      2205.13     0.217854
      2420.13     0.213364
      2656.09     0.209275
      2915.05     0.205301
      3199.27     0.200908
      3511.19     0.196384
      3853.53     0.192000
      4229.24     0.188169
      4641.59     0.184618
      5094.13     0.181304
      5590.81     0.178398
      6135.91     0.175843
      6734.16     0.173217
      7390.72     0.170691
      8111.31     0.168400
      8902.16     0.166291
      9770.09     0.164317
      10722.7     0.162493
      11768.1     0.160842
      12915.5     0.159371
      14174.7     0.157995
      15556.8     0.156751
      17073.5     0.155629
      18738.2     0.154596
      20565.1     0.153655
      22570.2     0.152804
      24770.8     0.152056
      27185.9     0.151434
      29836.5     0.150843
      32745.5     0.150321
      35938.1     0.149908
      39442.1     0.149521
      43287.6     0.149219
      47508.1     0.148942
      52140.1     0.148760
      57223.7     0.148588
      62802.8     0.148490
      68926.1     0.148450
      75646.4     0.148431
      83021.6     0.148461
      91116.2     0.148545
      100000.     0.148671
